   Frequency    dB
   11.804	 91.2778
   11.929	 91.3124
   12.056	 91.3730
   12.184	 91.4374
   12.314	 91.5023
   12.445	 91.5677
   12.578	 91.6336
   12.711	 91.7000
   12.847	 91.7668
   12.983	 91.8341
   13.122	 91.9018
   13.261	 91.9700
   13.402	 92.0386
   13.545	 92.1076
   13.689	 92.1770
   13.835	 92.2468
   13.982	 92.3170
   14.131	 92.3875
   14.281	 92.4584
   14.433	 92.5296
   14.587	 92.6011
   14.742	 92.6729
   14.899	 92.7449
   15.057	 92.8172
   15.217	 92.8897
   15.379	 92.9624
   15.543	 93.0353
   15.708	 93.1083
   15.875	 93.1814
   16.044	 93.2546
   16.215	 93.3278
   16.388	 93.4010
   16.562	 93.4742
   16.738	 93.5474
   16.916	 93.6205
   17.096	 93.6934
   17.278	 93.7661
   17.462	 93.8386
   17.648	 93.9108
   17.836	 93.9827
   18.025	 94.0542
   18.217	 94.1253
   18.411	 94.1959
   18.607	 94.2660
   18.805	 94.3354
   19.005	 94.4042
   19.207	 94.4722
   19.412	 94.5394
   19.618	 94.6058
   19.827	 94.6712
   20.038	 94.7355
   20.251	 94.7987
   20.467	 94.8607
   20.684	 94.9214
   20.905	 94.9807
   21.127	 95.0385
   21.352	 95.0948
   21.579	 95.1493
   21.809	 95.2020
   22.041	 95.2527
   22.275	 95.3015
   22.512	 95.3480
   22.752	 95.3923
   22.994	 95.4341
   23.239	 95.4733
   23.486	 95.5105
   23.736	 95.5464
   23.988	 95.5818
   24.244	 95.6169
   24.501	 95.6518
   24.762	 95.6864
   25.026	 95.7207
   25.292	 95.7547
   25.561	 95.7885
   25.833	 95.8219
   26.108	 95.8549
   26.386	 95.8876
   26.667	 95.9199
   26.950	 95.9518
   27.237	 95.9832
   27.527	 96.0143
   27.820	 96.0448
   28.116	 96.0749
   28.415	 96.1044
   28.717	 96.1334
   29.023	 96.1619
   29.332	 96.1898
   29.644	 96.2170
   29.959	 96.2436
   30.278	 96.2696
   30.600	 96.2949
   30.926	 96.3194
   31.255	 96.3432
   31.587	 96.3662
   31.924	 96.3885
   32.263	 96.4099
   32.607	 96.4304
   32.953	 96.4500
   33.304	 96.4687
   33.658	 96.4864
   34.017	 96.5031
   34.379	 96.5188
   34.744	 96.5335
   35.114	 96.5482
   35.488	 96.5636
   35.865	 96.5795
   36.247	 96.5953
   36.633	 96.6106
   37.022	 96.6255
   37.416	 96.6399
   37.815	 96.6538
   38.217	 96.6672
   38.624	 96.6801
   39.035	 96.6923
   39.450	 96.7041
   39.870	 96.7152
   40.294	 96.7257
   40.723	 96.7355
   41.156	 96.7447
   41.594	 96.7532
   42.036	 96.7610
   42.484	 96.7681
   42.936	 96.7743
   43.393	 96.7798
   43.854	 96.7845
   44.321	 96.7884
   44.793	 96.7913
   45.269	 96.7934
   45.751	 96.7945
   46.238	 96.7946
   46.730	 96.7924
   47.227	 96.7874
   47.730	 96.7801
   48.237	 96.7719
   48.751	 96.7636
   49.269	 96.7551
   49.794	 96.7464
   50.323	 96.7376
   50.859	 96.7287
   51.400	 96.7196
   51.947	 96.7104
   52.500	 96.7011
   53.058	 96.6917
   53.623	 96.6822
   54.194	 96.6727
   54.770	 96.6630
   55.353	 96.6533
   55.942	 96.6436
   56.537	 96.6338
   57.139	 96.6239
   57.747	 96.6141
   58.361	 96.6042
   58.982	 96.5941
   59.610	 96.5840
   60.244	 96.5738
   60.885	 96.5636
   61.533	 96.5533
   62.188	 96.5430
   62.850	 96.5327
   63.518	 96.5223
   64.194	 96.5118
   64.877	 96.5012
   65.568	 96.4905
   66.265	 96.4796
   66.970	 96.4686
   67.683	 96.4574
   68.403	 96.4459
   69.131	 96.4341
   69.867	 96.4205
   70.610	 96.4028
   71.361	 96.3808
   72.121	 96.3563
   72.888	 96.3312
   73.664	 96.3057
   74.448	 96.2799
   75.240	 96.2537
   76.040	 96.2271
   76.849	 96.2002
   77.667	 96.1729
   78.494	 96.1451
   79.329	 96.1170
   80.173	 96.0885
   81.026	 96.0595
   81.888	 96.0303
   82.759	 96.0009
   83.640	 95.9713
   84.530	 95.9413
   85.430	 95.9109
   86.339	 95.8801
   87.257	 95.8488
   88.186	 95.8170
   89.124	 95.7848
   90.072	 95.7522
   91.031	 95.7190
   91.999	 95.6854
   92.978	 95.6512
   93.968	 95.6161
   94.968	 95.5800
   95.978	 95.5428
   96.999	 95.5046
   98.032	 95.4656
   99.075	 95.4256
  100.129	 95.3846
  101.194	 95.3426
  102.271	 95.2996
  103.359	 95.2556
  104.459	 95.2104
  105.571	 95.1630
  106.694	 95.1135
  107.829	 95.0621
  108.977	 95.0098
  110.136	 94.9566
  111.308	 94.9026
  112.492	 94.8476
  113.689	 94.7918
  114.899	 94.7350
  116.122	 94.6773
  117.357	 94.6191
  118.606	 94.5600
  119.868	 94.4999
  121.144	 94.4385
  122.433	 94.3760
  123.735	 94.3127
  125.052	 94.2489
  126.383	 94.1851
  127.727	 94.1249
  129.087	 94.0849
  130.460	 94.0736
  131.848	 94.0902
  133.251	 94.1202
  134.669	 94.1570
  136.102	 94.1944
  137.550	 94.2260
  139.014	 94.2445
  140.493	 94.2413
  141.988	 94.2181
  143.499	 94.1820
  145.026	 94.1433
  146.569	 94.1036
  148.129	 94.0636
  149.705	 94.0236
  151.298	 93.9840
  152.908	 93.9447
  154.535	 93.9057
  156.179	 93.8668
  157.841	 93.8278
  159.520	 93.7886
  161.218	 93.7486
  162.933	 93.7075
  164.667	 93.6651
  166.419	 93.6212
  168.190	 93.5760
  169.979	 93.5294
  171.788	 93.4813
  173.616	 93.4317
  175.463	 93.3802
  177.330	 93.3255
  179.217	 93.2670
  181.124	 93.2051
  183.052	 93.1419
  184.999	 93.0801
  186.968	 93.0251
  188.957	 92.9803
  190.968	 92.9456
  193.000	 92.9159
  195.054	 92.8867
  197.129	 92.8540
  199.227	 92.8156
  201.347	 92.7708
  203.489	 92.7207
  205.654	 92.6676
  207.843	 92.6150
  210.054	 92.5670
  212.289	 92.5252
  214.548	 92.4887
  216.831	 92.4551
  219.138	 92.4236
  221.470	 92.3938
  223.827	 92.3660
  226.208	 92.3404
  228.615	 92.3165
  231.048	 92.2921
  233.506	 92.2626
  235.991	 92.2245
  238.502	 92.1775
  241.040	 92.1256
  243.605	 92.0752
  246.197	 92.0316
  248.816	 91.9954
  251.464	 91.9644
  254.140	 91.9358
  256.844	 91.9089
  259.577	 91.8840
  262.339	 91.8610
  265.130	 91.8386
  267.952	 91.8130
  270.803	 91.7800
  273.684	 91.7390
  276.596	 91.6936
  279.540	 91.6495
  282.514	 91.6099
  285.520	 91.5746
  288.558	 91.5408
  291.629	 91.5051
  294.732	 91.4653
  297.868	 91.4216
  301.037	 91.3764
  304.241	 91.3323
  307.478	 91.2905
  310.750	 91.2509
  314.056	 91.2137
  317.398	 91.1802
  320.775	 91.1507
  324.189	 91.1226
  327.638	 91.0895
  331.124	 91.0472
  334.648	 90.9980
  338.209	 90.9498
  341.807	 90.9080
  345.444	 90.8732
  349.120	 90.8428
  352.835	 90.8152
  356.589	 90.7906
  360.384	 90.7705
  364.218	 90.7611
  368.094	 90.7636
  372.011	 90.7666
  375.969	 90.7446
  379.970	 90.6904
  384.013	 90.6264
  388.099	 90.5892
  392.228	 90.5851
  396.402	 90.5849
  400.620	 90.5562
  404.883	 90.4998
  409.191	 90.4508
  413.545	 90.4359
  417.945	 90.4441
  422.393	 90.4414
  426.887	 90.4146
  431.429	 90.3772
  436.020	 90.3462
  440.660	 90.3226
  445.348	 90.2963
  450.087	 90.2624
  454.876	 90.2262
  459.717	 90.1950
  464.608	 90.1707
  469.552	 90.1494
  474.548	 90.1303
  479.598	 90.1184
  484.701	 90.1175
  489.858	 90.1146
  495.071	 90.0940
  500.339	 90.0535
  505.663	 90.0072
  511.043	 89.9675
  516.481	 89.9457
  521.977	 89.9408
  527.531	 89.9400
  533.144	 89.9305
  538.817	 89.9179
  544.550	 89.9095
  550.345	 89.8943
  556.201	 89.8655
  562.119	 89.8380
  568.100	 89.8299
  574.145	 89.8437
  580.255	 89.8623
  586.429	 89.8626
  592.669	 89.8370
  598.975	 89.7894
  605.349	 89.7449
  611.790	 89.7224
  618.300	 89.7137
  624.879	 89.7007
  631.528	 89.6842
  638.248	 89.6825
  645.039	 89.7025
  651.903	 89.7253
  658.839	 89.7375
  665.850	 89.7281
  672.935	 89.6982
  680.095	 89.6741
  687.332	 89.6734
  694.645	 89.6979
  702.037	 89.7234
  709.507	 89.7437
  717.057	 89.7630
  724.686	 89.7748
  732.398	 89.7727
  740.191	 89.7593
  748.067	 89.7423
  756.027	 89.7281
  764.071	 89.7330
  772.201	 89.7506
  780.418	 89.7618
  788.722	 89.7468
  797.115	 89.7446
  805.597	 89.7733
  814.169	 89.8257
  822.832	 89.8611
  831.587	 89.8834
  840.436	 89.9168
  849.379	 89.9700
  858.417	 89.9991
  867.551	 90.0059
  876.782	 90.0291
  886.111	 90.0845
  895.540	 90.1349
  905.069	 90.1701
  914.700	 90.2328
  924.433	 90.3152
  934.269	 90.3945
  944.210	 90.4511
  954.257	 90.5072
  964.411	 90.5605
  974.673	 90.6133
  985.044	 90.6526
  995.526	 90.7120
 1006.119	 90.7588
 1016.824	 90.8340
 1027.644	 90.9117
 1038.579	 91.0257
 1049.630	 91.1427
 1060.799	 91.2575
 1072.086	 91.3623
 1083.494	 91.4507
 1095.023	 91.5234
 1106.674	 91.6042
 1118.450	 91.7018
 1130.351	 91.8070
 1142.379	 91.8993
 1154.534	 91.9944
 1166.819	 92.1008
 1179.235	 92.2065
 1191.783	 92.2988
 1204.464	 92.3884
 1217.280	 92.4705
 1230.233	 92.5670
 1243.323	 92.6563
 1256.553	 92.7623
 1269.923	 92.8530
 1283.436	 92.9413
 1297.093	 92.9938
 1310.895	 93.0466
 1324.843	 93.1063
 1338.940	 93.2014
 1353.188	 93.3031
 1367.586	 93.3898
 1382.138	 93.4512
 1396.845	 93.5164
 1411.708	 93.5907
 1426.730	 93.6723
 1441.911	 93.7533
 1457.254	 93.8387
 1472.760	 93.9076
 1488.431	 93.9593
 1504.269	 94.0241
 1520.275	 94.0954
 1536.452	 94.1544
 1552.801	 94.2161
 1569.323	 94.2912
 1586.022	 94.3845
 1602.898	 94.4395
 1619.954	 94.4901
 1637.191	 94.5505
 1654.612	 94.6168
 1672.218	 94.6772
 1690.011	 94.7357
 1707.994	 94.8041
 1726.168	 94.8869
 1744.536	 94.9654
 1763.099	 95.0305
 1781.859	 95.0889
 1800.819	 95.1526
 1819.981	 95.2291
 1839.347	 95.2986
 1858.918	 95.3688
 1878.698	 95.4328
 1898.689	 95.4992
 1918.892	 95.5817
 1939.310	 95.6682
 1959.946	 95.7439
 1980.801	 95.8163
 2001.878	 95.8934
 2023.179	 95.9702
 2044.707	 96.0483
 2066.464	 96.1052
 2088.452	 96.1573
 2110.674	 96.2336
 2133.133	 96.3314
 2155.831	 96.4096
 2178.771	 96.4708
 2201.954	 96.5351
 2225.384	 96.6021
 2249.063	 96.6782
 2272.995	 96.7655
 2297.181	 96.8610
 2321.624	 96.9321
 2346.328	 96.9993
 2371.294	 97.0660
 2396.526	 97.1440
 2422.027	 97.2330
 2447.798	 97.3000
 2473.844	 97.3567
 2500.168	 97.4134
 2526.771	 97.4838
 2553.657	 97.5359
 2580.830	 97.5712
 2608.291	 97.6116
 2636.045	 97.6577
 2664.094	 97.7092
 2692.442	 97.7603
 2721.091	 97.8109
 2750.045	 97.8597
 2779.307	 97.8914
 2808.881	 97.9088
 2838.769	 97.9098
 2868.975	 97.9147
 2899.503	 97.9171
 2930.355	 97.9219
 2961.536	 97.9283
 2993.049	 97.9254
 3024.896	 97.9234
 3057.083	 97.9238
 3089.612	 97.9225
 3122.488	 97.9112
 3155.713	 97.8932
 3189.292	 97.8806
 3223.228	 97.8449
 3257.525	 97.8094
 3292.187	 97.7656
 3327.218	 97.7189
 3362.621	 97.6648
 3398.402	 97.6221
 3434.563	 97.5918
 3471.108	 97.5650
 3508.043	 97.5028
 3545.371	 97.4175
 3583.096	 97.3270
 3621.222	 97.2719
 3659.754	 97.2134
 3698.696	 97.1555
 3738.052	 97.0876
 3777.827	 97.0475
 3818.026	 96.9852
 3858.652	 96.9344
 3899.710	 96.8682
 3941.206	 96.8094
 3983.142	 96.7537
 4025.525	 96.7010
 4068.360	 96.6536
 4111.649	 96.5888
 4155.400	 96.5195
 4199.616	 96.4545
 4244.302	 96.3993
 4289.464	 96.3395
 4335.106	 96.2741
 4381.235	 96.2011
 4427.854	 96.1286
 4474.969	 96.0543
 4522.585	 95.9964
 4570.708	 95.9592
 4619.343	 95.9236
 4668.496	 95.8708
 4718.171	 95.8004
 4768.376	 95.7192
 4819.114	 95.6305
 4870.393	 95.5281
 4922.216	 95.4229
 4974.592	 95.2972
 5027.524	 95.1704
 5081.021	 95.0371
 5135.085	 94.8984
 5189.726	 94.7426
 5244.948	 94.5814
 5300.757	 94.4299
 5357.161	 94.2694
 5414.164	 94.1115
 5471.774	 93.9311
 5529.997	 93.7535
 5588.839	 93.5483
 5648.308	 93.3766
 5708.409	 93.1947
 5769.150	 93.0220
 5830.538	 92.8468
 5892.578	 92.6833
 5955.279	 92.5348
 6018.646	 92.3848
 6082.688	 92.2384
 6147.412	 92.1056
 6212.824	 91.9933
 6278.932	 91.8717
 6345.744	 91.7579
 6413.267	 91.6389
 6481.507	 91.5508
 6550.475	 91.4600
 6620.176	 91.4008
 6690.619	 91.3587
 6761.811	 91.3148
 6833.760	 91.2964
 6906.476	 91.2879
 6979.965	 91.3079
 7054.236	 91.3409
 7129.297	 91.4100
 7205.157	 91.4939
 7281.825	 91.6066
 7359.308	 91.7357
 7437.615	 91.8887
 7516.756	 92.0772
 7596.739	 92.3125
 7677.572	 92.5876
 7759.267	 92.8822
 7841.830	 93.1946
 7925.271	 93.5542
 8009.601	 93.9451
 8094.828	 94.3621
 8180.962	 94.7907
 8268.013	 95.1990
 8355.989	 95.5648
 8444.902	 95.8328
 8534.761	 95.9883
 8625.576	 95.9684
 8717.357	 95.7449
 8810.115	 95.2995
 8903.860	 94.6540
 8998.603	 93.8538
 9094.354	 92.9553
 9191.123	 92.0160
 9288.922	 91.0478
 9387.762	 90.0865
 9487.653	 89.1586
 9588.607	 88.2899
 9690.636	 87.4671
 9793.750	 86.7044
 9897.962	 86.0174
10003.282	 85.3762
10109.723	 84.7930
10217.297	 84.2328
10326.015	 83.7053
10435.890	 83.2162
10546.934	 82.7574
10659.160	 82.3310
10772.580	 81.9101
10887.206	 81.5462
11003.053	 81.2380
11120.132	 80.9975
11238.457	 80.8319
11358.041	 80.7829
11478.897	 80.9506
11601.040	 81.4350
11724.481	 82.2924
11849.237	 83.4481
11975.320	 84.6812
12102.745	 85.8123
12231.525	 86.7427
12361.677	 87.4891
12493.212	 88.1175
12626.147	 88.7114
12760.497	 89.3661
12896.277	 90.1108
13033.501	 90.9649
13172.186	 91.9350
13312.346	 92.9932
13453.997	 93.9933
13597.155	 94.7389
13741.838	 95.0311
13888.059	 94.7834
14035.836	 94.0135
14185.187	 92.8741
14336.125	 91.5826
14488.670	 90.3136
14642.839	 89.1742
14798.647	 88.1690
14956.113	 87.3266
15115.256	 86.6245
15276.091	 86.0774
15438.638	 85.6527
15602.915	 85.3556
15768.939	 85.1878
15936.730	 85.1296
16106.307	 85.1651
16277.688	 85.2499
16450.893	 85.3398
16625.939	 85.3637
16802.850	 85.2530
16981.643	 84.8835
17162.336	 84.1202
17344.955	 82.8296
17529.516	 81.2206
17716.039	 79.6953
17904.549	 78.7046
18095.064	 77.8650
18287.607	 76.9928
18482.199	 76.1229
18678.859	 75.3895
18877.615	 74.8857
19078.484	 74.6709
19281.490	 74.6783
19486.656	 74.8067
19694.008	 74.9583
19903.563	 75.0881
20115.350	 75.1512
20329.389	 75.1042
20545.705	 74.8783
20764.324	 74.4012
20985.270	 73.6098
21208.564	 72.4037
21434.236	 70.6204
21662.311	 68.0758
21892.811	 64.5751
22125.764	 60.1055
22361.195	 54.4895
22599.131	 48.0019
22839.600	 41.7525
23082.627	 39.2980
23328.240	 39.6150
23576.467	 40.3396
23827.334	 40.7837
