DUMMY
DUMMY
DUMMY
DUMMY
DUMMY
DUMMY
DUMMY
DUMMY
DUMMY
DUMMY
DUMMY
DUMMY
DUMMY
FREQ  SPL
20.8996	34.4471
21.2009	34.4427
21.5065	34.4386
21.8166	34.4353
22.131	34.433
22.4501	34.4322
22.7737	34.4334
23.102	34.4372
23.435	34.4442
23.773	34.4549
24.115	34.4691
24.463	34.4862
24.816	34.5053
25.173	34.5256
25.536	34.546
25.904	34.5657
26.278	34.5842
26.657	34.6015
27.041	34.618
27.431	34.634
27.826	34.6498
28.227	34.6658
28.634	34.6821
29.047	34.6992
29.466	34.7171
29.89	34.7354
30.321	34.7536
30.758	34.7712
31.202	34.7881
31.652	34.804
32.108	34.819
32.571	34.8331
33.04	34.8463
33.516	34.8586
34	34.8698
34.49	34.8799
34.987	34.8888
35.491	34.8964
36.003	34.9023
36.522	34.9063
37.048	34.908
37.582	34.9073
38.124	34.9044
38.674	34.8997
39.231	34.8935
39.797	34.8867
40.37	34.88
40.952	34.8743
41.543	34.8707
42.141	34.8694
42.749	34.8698
43.365	34.8713
43.99	34.873
44.624	34.8742
45.268	34.8741
45.92	34.8717
46.582	34.8664
47.254	34.8587
47.935	34.8492
48.626	34.8389
49.327	34.8286
50.038	34.819
50.759	34.811
51.491	34.805
52.233	34.8003
52.986	34.7956
53.75	34.7901
54.525	34.7826
55.311	34.772
56.108	34.7573
56.917	34.7371
57.737	34.7118
58.569	34.6831
59.414	34.653
60.27	34.6236
61.139	34.5968
62.02	34.5746
62.914	34.5587
63.821	34.5486
64.741	34.5424
65.674	34.5381
66.621	34.5337
67.582	34.5275
68.556	34.5175
69.544	34.5019
70.546	34.4792
71.563	34.4503
72.595	34.4163
73.641	34.3785
74.703	34.3382
75.78	34.297
76.872	34.2562
77.98	34.2171
79.104	34.1797
80.245	34.1439
81.402	34.1097
82.575	34.0768
83.765	34.0452
84.973	34.0145
86.198	33.9848
87.44	33.9561
88.701	33.9283
89.979	33.9018
91.276	33.8766
92.592	33.8534
93.927	33.8328
95.281	33.8158
96.654	33.7997
98.048	33.7777
99.461	33.7435
100.895	33.6956
102.349	33.6378
103.825	33.5748
105.321	33.5093
106.839	33.443
108.379	33.3771
109.942	33.3127
111.527	33.2509
113.134	33.1924
114.765	33.1381
116.419	33.0887
118.098	33.0455
119.8	33.0101
121.527	32.9849
123.279	32.9736
125.056	32.977
126.859	32.9878
128.687	32.9975
130.542	33.0013
132.424	32.9975
134.333	32.9865
136.269	32.9692
138.234	32.947
140.226	32.9213
142.248	32.8929
144.298	32.8625
146.378	32.8303
148.489	32.7966
150.629	32.7617
152.8	32.7256
155.003	32.6884
157.237	32.6503
159.504	32.6112
161.803	32.5711
164.136	32.53
166.502	32.4876
168.902	32.4433
171.337	32.396
173.806	32.3444
176.312	32.287
178.853	32.2232
181.432	32.1543
184.047	32.0825
186.7	32.0092
189.391	31.9354
192.121	31.8619
194.891	31.7894
197.7	31.7186
200.55	31.6501
203.441	31.5833
206.374	31.5166
209.349	31.4485
212.366	31.3769
215.428	31.3
218.533	31.2159
221.683	31.123
224.879	31.0238
228.121	30.9218
231.409	30.8211
234.745	30.7254
238.13	30.6389
241.56	30.5655
245.04	30.5065
248.58	30.4586
252.16	30.4183
255.79	30.3822
259.48	30.3475
263.22	30.312
267.02	30.2741
270.87	30.2336
274.77	30.1908
278.73	30.1461
282.75	30.0998
286.82	30.052
290.96	30.0029
295.15	29.9524
299.41	29.9007
303.72	29.8475
308.1	29.7928
312.54	29.7364
317.05	29.6779
321.62	29.6171
326.26	29.5538
330.96	29.4882
335.73	29.4204
340.57	29.3506
345.48	29.2794
350.46	29.207
355.51	29.1339
360.63	29.0604
365.83	28.9868
371.11	28.9134
376.46	28.8405
381.88	28.7685
387.39	28.6976
392.97	28.6282
398.64	28.5607
404.38	28.4953
410.21	28.4326
416.13	28.3728
422.12	28.3157
428.21	28.261
434.38	28.2083
440.64	28.1573
447	28.1077
453.44	28.0588
459.98	28.0103
466.61	27.9614
473.33	27.9114
480.16	27.8597
487.08	27.8058
494.1	27.7489
501.22	27.6884
508.45	27.6249
515.78	27.5599
523.21	27.4951
530.75	27.4322
538.4	27.3728
546.16	27.3187
554.04	27.2716
562.02	27.2319
570.13	27.1988
578.34	27.1715
586.68	27.1493
595.14	27.1312
603.72	27.1164
612.42	27.1042
621.25	27.0943
630.2	27.0873
639.29	27.0836
648.5	27.084
657.85	27.0889
667.33	27.099
676.95	27.1149
686.71	27.1367
696.61	27.1641
706.65	27.1965
716.84	27.2336
727.17	27.2747
737.66	27.3193
748.29	27.3669
759.08	27.4173
770.02	27.4706
781.12	27.5273
792.38	27.5879
803.8	27.6528
815.39	27.7227
827.14	27.7985
839.06	27.881
851.16	27.9704
863.43	28.0668
875.88	28.1703
888.5	28.2808
901.31	28.3978
914.3	28.5211
927.48	28.6501
940.85	28.7843
954.41	28.923
968.17	29.0654
982.13	29.2108
996.29	29.3588
1010.65	29.5099
1025.22	29.6648
1039.99	29.8244
1054.99	29.9898
1070.19	30.1626
1085.62	30.3436
1101.27	30.5291
1117.15	30.7134
1133.25	30.89
1149.59	31.0531
1166.16	31.1987
1182.97	31.3291
1200.02	31.4523
1217.32	31.5759
1234.87	31.7073
1252.67	31.8558
1270.72	32.0344
1289.04	32.2479
1307.62	32.4835
1326.47	32.7209
1345.59	32.9411
1364.99	33.1332
1384.67	33.3004
1404.63	33.4511
1424.88	33.5902
1445.42	33.7213
1466.25	33.8477
1487.39	33.9729
1508.83	34.0927
1530.58	34.1993
1552.64	34.2938
1575.02	34.3804
1597.73	34.462
1620.76	34.5403
1644.12	34.6163
1667.82	34.6907
1691.86	34.7637
1716.25	34.8354
1740.99	34.9059
1766.09	34.9753
1791.55	35.0434
1817.37	35.1103
1843.57	35.1758
1870.15	35.2398
1897.11	35.3018
1924.45	35.3614
1952.19	35.4178
1980.33	35.4696
2008.88	35.5152
2037.84	35.5525
2067.22	35.579
2097.01	35.5936
2127.24	35.5994
2157.91	35.6042
2189.01	35.614
2220.57	35.6295
2252.58	35.6506
2285.05	35.6776
2317.99	35.7111
2351.4	35.7522
2385.3	35.8025
2419.7	35.8646
2454.6	35.9412
2489.9	36.0326
2525.8	36.1371
2562.3	36.2517
2599.2	36.3719
2636.7	36.4925
2674.7	36.6089
2713.2	36.7189
2752.3	36.8212
2792	36.9146
2832.3	36.9973
2873.1	37.0673
2914.5	37.1217
2956.5	37.1585
2999.1	37.1805
3042.4	37.1936
3086.2	37.2034
3130.7	37.2149
3175.8	37.231
3221.6	37.2536
3268.1	37.2831
3315.2	37.3187
3362.9	37.3596
3411.4	37.4055
3460.6	37.4564
3510.5	37.5124
3561.1	37.5738
3612.4	37.6413
3664.5	37.7158
3717.3	37.7992
3770.9	37.8932
3825.3	37.9965
3880.4	38.1046
3936.3	38.2094
3993.1	38.2982
4050.7	38.3528
4109	38.3506
4168.3	38.2764
4228.4	38.1348
4289.3	37.9336
4351.1	37.6815
4413.9	37.3892
4477.5	37.0668
4542	36.7178
4607.5	36.3469
4673.9	35.9636
4741.3	35.5818
4809.6	35.2158
4879	34.8731
4949.3	34.5542
5020.7	34.2626
5093	34.0051
5166.4	33.7912
5240.9	33.6365
5316.5	33.5565
5393.1	33.5383
5470.9	33.5515
5549.7	33.5436
5629.7	33.4594
5710.9	33.3216
5793.2	33.2005
5876.7	33.1587
5961.4	33.2137
6047.3	33.3827
6134.5	33.6692
6223	34.0333
6312.7	34.4273
6403.7	34.7952
6496	35.098
6589.6	35.2993
6684.6	35.3573
6781	35.284
6878.7	35.1479
6977.9	35.0291
7078.4	35.0107
7180.5	35.1418
7284	35.4002
7389	35.7578
7495.5	36.1891
7603.6	36.6664
7713.2	37.1423
7824.3	37.5447
7937.1	37.7604
8051.5	37.6465
8167.6	37.1746
8285.3	36.4341
8404.8	35.5521
8525.9	34.58
8648.8	33.5649
8773.5	32.6383
8900	31.7832
9028.3	30.9414
9158.4	30.2355
9290.4	29.7436
9424.4	29.4278
9560.2	29.2863
9698	29.3514
9837.8	29.3946
9979.6	29.2308
10123.5	28.9099
10269.4	28.4985
10417.5	28.0131
10567.6	27.4362
10720	26.7681
10874.5	26.2162
11031.3	25.931
11190.3	25.8681
11351.6	26.0216
11515.2	26.3736
11681.2	26.9061
11849.6	27.5355
12020.4	27.8909
12193.7	27.9338
12369.5	27.7936
12547.8	27.5991
12728.7	27.4183
12912.1	27.2964
13098.3	27.2792
13287.1	27.4298
13478.6	27.8191
13672.9	28.4687
13870	29.3911
14070	30.5944
14272.8	32.0333
14478.5	33.1282
14687.2	33.1666
14898.9	32.3804
15113.7	31.2037
15331.6	29.8031
15552.6	28.2124
15776.8	26.519
16004.2	25.6705
16234.9	24.8149
16468.9	23.9018
16706.3	23.2067
16947.2	23.3714
17191.5	24.0144
17439.3	24.8597
17690.7	25.6421
17945.7	25.9003
18204.4	25.303
18466.8	24.159
18733	22.8519
19003	21.9882
19277	22.209
19554.8	22.4688
