
Frequency	dB	Unweighted
19.5	34.7 
19.8	35.1 
20.1	35.4 
20.3	35.8 
20.6	36.1 
20.9	36.6 
21.2	36.9 
21.6	37.4 
21.9	37.8 
22.2	38.1 
22.5	38.6 
22.8	38.9 
23.2	39.3 
23.5	39.6 
23.8	39.9 
24.2	40.2 
24.5	40.4 
24.9	40.9 
25.3	41.1 
25.6	41.3 
26	41.5   
26.4	41.7 
26.8	41.9 
27.2	42.2 
27.5	42.3 
28	42.3   
28.4	42.5 
28.8	42.7 
29.2	42.7 
29.6	42.8 
30	42.8   
30.5	42.9 
30.9	42.8 
31.4	42.9 
31.8	42.9 
32.3	42.8 
32.8	42.8 
33.2	42.9 
33.7	42.9 
34.2	42.8 
34.7	42.7 
35.2	42.8 
35.7	42.7 
36.2	42.7 
36.8	42.7 
37.3	42.6 
37.9	42.6 
38.4	42.6 
39	42.4   
39.5	42.5 
40.1	42.4 
40.7	42.3 
41.3	42.4 
41.9	42.3 
42.5	42.3 
43.1	42.2 
43.7	42.1 
44.4	42   
45	42.1   
45.7	42   
46.3	42   
47	42     
47.7	42   
48.4	41.8 
49.1	41.9 
49.8	41.9 
50.5	41.9 
51.3	41.7 
52	41.7   
52.8	41.7 
53.5	41.8 
54.3	41.8 
55.1	41.6 
55.9	41.7 
56.7	41.7 
57.5	41.7 
58.4	41.6 
59.2	41.5 
60.1	41.6 
61	41.6   
61.8	41.5 
62.7	41.5 
63.7	41.5 
64.6	41.5 
65.5	41.4 
66.5	41.5 
67.4	41.5 
68.4	41.5 
69.4	41.4 
70.4	41.5 
71.5	41.6 
72.5	41.5 
73.5	41.5 
74.6	41.4 
75.7	41.5 
76.8	41.4 
77.9	41.6 
79.1	41.4 
80.2	41.5 
81.4	41.5 
82.6	41.5 
83.8	41.5 
85	41.4   
86.2	41.5 
87.5	41.5 
88.7	41.5 
90	41.5   
91.3	41.6 
92.7	41.6 
94	41.6   
95.4	41.5 
96.8	41.5 
98.2	41.5 
99.6	41.5 
101	41.5  
103	41.5  
104	41.5  
106	41.7  
107	41.6  
109	41.7  
110	41.6  
112	41.6  
113	41.6  
115	41.7  
117	41.6  
118	41.7  
120	41.6  
122	41.6  
124	41.6  
125	41.7  
127	41.6  
129	41.7  
131	41.8  
133	41.7  
135	41.7  
137	41.7  
139	41.7  
141	41.8  
143	41.8  
145	41.8  
147	41.9  
149	41.8  
151	41.9  
154	41.8  
156	41.9  
158	41.8  
160	41.8  
163	41.8  
165	41.9  
168	41.9  
170	42    
172	42    
175	42.1  
177	41.9  
180	42.1  
183	42    
185	42.2  
188	42    
191	42.1  
194	42.1  
196	42.2  
199	42.2  
202	42.1  
205	42.1  
208	42.1  
211	42.2  
214	42.2  
217	42.2  
220	42.3  
224	42.2  
227	42.3  
230	42.3  
234	42.4  
237	42.4  
240	42.3  
244	42.4  
247	42.5  
251	42.5  
255	42.4  
258	42.5  
262	42.6  
266	42.5  
270	42.6  
274	42.7  
278	42.7  
282	42.6  
286	42.6  
290	42.8  
294	42.7  
298	42.7  
303	42.8  
307	42.8  
312	42.8  
316	42.9  
321	42.9  
325	42.8  
330	42.9  
335	43    
340	42.9  
345	43    
350	43    
355	43    
360	43.1  
365	43.1  
371	43    
376	43.2  
382	43.1  
387	43.2  
393	43.3  
398	43.4  
404	43.3  
410	43.4  
416	43.3  
422	43.4  
428	43.4  
434	43.4  
441	43.5  
447	43.4  
454	43.5  
460	43.6  
467	43.7  
474	43.7  
481	43.7  
488	43.8  
495	43.8  
502	43.7  
509	43.8  
517	43.8  
524	43.8  
532	43.9  
540	44    
547	44.1  
555	44    
563	44.1  
572	44.2  
580	44    
588	44.1  
597	44.1  
606	44.3  
614	44.3  
623	44.3  
632	44.4  
642	44.4  
651	44.5  
660	44.5  
670	44.6  
680	44.6  
690	44.6  
700	44.8  
710	44.7  
720	44.8  
731	44.9  
741	44.9  
752	44.8  
763	44.9  
774	45.1  
785	45    
797	45.2  
808	45.1  
820	45.2  
832	45.3  
844	45.3  
856	45.3  
869	45.4  
882	45.4  
894	45.5  
907	45.6  
921	45.7  
934	45.7  
948	45.8  
961	45.8  
975	45.9  
990	45.9  
1004	46   
1019	46   
1033	46.1 
1048	46.3 
1064	46.4 
1079	46.3 
1095	46.3 
1111	46.5 
1127	46.7 
1143	46.6 
1160	46.6 
1177	46.7 
1194	46.8 
1211	46.9 
1229	47   
1247	47   
1265	47.2 
1283	47.2 
1302	47.3 
1321	47.5 
1340	47.5 
1360	47.7 
1379	47.7 
1399	47.8 
1420	47.9 
1440	47.9 
1461	48   
1483	48.1 
1504	48.2 
1526	48.4 
1548	48.5 
1571	48.5 
1594	48.7 
1617	48.8 
1640	48.9 
1664	48.9 
1688	49   
1713	49.1 
1738	49.3 
1763	49.3 
1789	49.6 
1815	49.7 
1841	49.7 
1868	49.8 
1895	50   
1923	50   
1951	50.1 
1979	50.4 
2008	50.5 
2037	50.6 
2067	50.8 
2097	50.9 
2127	51.1 
2158	51.2 
2190	51.3 
2221	51.5 
2254	51.6 
2287	51.6 
2320	51.7 
2354	51.9 
2388	52   
2423	52.2 
2458	52.3 
2494	52.6 
2530	52.6 
2567	52.6 
2604	52.8 
2642	52.9 
2680	53.1 
2719	53.1 
2759	53.3 
2799	53.4 
2840	53.5 
2881	53.6 
2923	53.8 
2965	53.9 
3008	53.8 
3052	54   
3097	54.1 
3142	54.1 
3187	54.1 
3234	54.2 
3281	54.3 
3328	54   
3377	53.9 
3426	53.7 
3476	53.3 
3526	52.8 
3578	52.2 
3630	51.3 
3682	50.6 
3736	49.5 
3790	48.7 
3846	47.8 
3901	47.2 
3958	46.9 
4016	46.9 
4074	47.3 
4133	48.1 
4194	48.8 
4255	49.8 
4316	50.7 
4379	51.4 
4443	51.8 
4508	52.1 
4573	52.3 
4640	52.2 
4707	52   
4776	51.9 
4845	51.8 
4916	51.5 
4987	51.4 
5060	51.2 
5133	51   
5208	50.7 
5284	50.6 
5360	50.5 
5438	50.3 
5518	50.2 
5598	49.8 
5679	49.6 
5762	49.3 
5846	48.8 
5931	47.8 
6017	47.1 
6104	46.5 
6193	46.4 
6283	46.7 
6375	47.3 
6467	47.7 
6561	47.8 
6657	47.9 
6754	47.7 
6852	47.4 
6952	47.3 
7053	47.2 
7155	46.9 
7259	46.7 
7365	46.7 
7472	46   
7581	45.2 
7691	44.5 
7803	44.5 
7916	45   
8032	45.5 
8148	45.5 
8267	45.5 
8387	45.3 
8509	45.1 
8633	45   
8758	45   
8886	44.2 
9015	43.6 
9146	43.8 
9279	44.3 
9414	44.4 
9551	44.4 
9690	44.2 
9831	44.2 
9974	43.8 
10119	43.1
10266	42.9
10416	43.4
10567	43.5
10721	43.5
10877	43.5
11035	43  
11196	42.4
11358	42.5
11524	42.9
11691	42.8
11861	42.9
12034	42.5
12209	41.8
12386	42.3
12567	42.3
12749	42.3
12935	41.8
13123	41.4
13314	42.1
13507	41.9
13704	41.8
13903	41.2
14105	41.6
14311	41.7
14519	41.5
14730	40.9
14944	41.2
15162	41.3
15382	40.7
15606	41.1
15833	41.1
16063	40.6
16297	40.7
16534	40.8
16774	40.3
17018	40.5
17266	40.4
17517	39.9
17772	40.3
18030	40.1
18293	40.2
18559	40  
18829	39.8
19102	39.9
19380	39.5
20000	39.5
overall dB	0.0 dB
decay	Average
averaging	No Smoothing
source	Totally Made Up


saved	--/-/--, --:-- AM
peak	0.0Hz
