
Frequency	dB	Unweighted
19.5	23.3 
19.8	23.6 
20.1	23.8 
20.3	24.1 
20.6	24.4 
20.9	24.8 
21.2	25   
21.6	25.2 
21.9	25.6 
22.2	25.9 
22.5	26.1 
22.8	26.3 
23.2	26.6 
23.5	27   
23.8	27.1 
24.2	27.4 
24.5	27.8 
24.9	28.1 
25.3	28.3 
25.6	28.6 
26	28.9   
26.4	29.2 
26.8	29.4 
27.2	29.8 
27.5	30.1 
28	30.4   
28.4	30.6 
28.8	30.9 
29.2	31.1 
29.6	31.4 
30	31.6   
30.5	31.9 
30.9	32.2 
31.4	32.6 
31.8	32.8 
32.3	33.1 
32.8	33.4 
33.2	33.6 
33.7	33.9 
34.2	34.2 
34.7	34.4 
35.2	34.6 
35.7	35.1 
36.2	35.2 
36.8	35.6 
37.3	35.8 
37.9	36.1 
38.4	36.2 
39	36.5   
39.5	36.7 
40.1	37   
40.7	37.3 
41.3	37.5 
41.9	37.8 
42.5	37.9 
43.1	38.2 
43.7	38.4 
44.4	38.5 
45	38.8   
45.7	39.1 
46.3	39.2 
47	39.3   
47.7	39.5 
48.4	39.7 
49.1	39.8 
49.8	40   
50.5	40.1 
51.3	40.3 
52	40.5   
52.8	40.5 
53.5	40.7 
54.3	40.8 
55.1	40.9 
55.9	41   
56.7	41   
57.5	41.1 
58.4	41.2 
59.2	41.2 
60.1	41.3 
61	41.4   
61.8	41.4 
62.7	41.4 
63.7	41.5 
64.6	41.5 
65.5	41.6 
66.5	41.6 
67.4	41.6 
68.4	41.6 
69.4	41.7 
70.4	41.7 
71.5	41.7 
72.5	41.8 
73.5	41.6 
74.6	41.7 
75.7	41.7 
76.8	41.8 
77.9	41.7 
79.1	41.8 
80.2	41.8 
81.4	41.6 
82.6	41.6 
83.8	41.8 
85	41.7   
86.2	41.7 
87.5	41.6 
88.7	41.6 
90	41.7   
91.3	41.6 
92.7	41.6 
94	41.6   
95.4	41.6 
96.8	41.6 
98.2	41.7 
99.6	41.6 
101	41.5  
103	41.5  
104	41.5  
106	41.4  
107	41.5  
109	41.4  
110	41.4  
112	41.6  
113	41.4  
115	41.5  
117	41.5  
118	41.5  
120	41.5  
122	41.5  
124	41.4  
125	41.5  
127	41.5  
129	41.4  
131	41.5  
133	41.5  
135	41.5  
137	41.4  
139	41.5  
141	41.5  
143	41.4  
145	41.4  
147	41.5  
149	41.4  
151	41.6  
154	41.4  
156	41.5  
158	41.4  
160	41.4  
163	41.5  
165	41.5  
168	41.4  
170	41.4  
172	41.6  
175	41.5  
177	41.5  
180	41.5  
183	41.5  
185	41.6  
188	41.5  
191	41.6  
194	41.6  
196	41.5  
199	41.7  
202	41.6  
205	41.6  
208	41.7  
211	41.7  
214	41.7  
217	41.7  
220	41.8  
224	41.7  
227	41.6  
230	41.7  
234	41.7  
237	41.8  
240	41.8  
244	41.8  
247	41.9  
251	41.8  
255	41.8  
258	41.9  
262	41.9  
266	42    
270	42    
274	41.9  
278	41.9  
282	41.9  
286	41.9  
290	42    
294	42.1  
298	42.1  
303	42.1  
307	42    
312	42.2  
316	42.1  
321	42.1  
325	42.2  
330	42.2  
335	42.2  
340	42.2  
345	42.3  
350	42.3  
355	42.3  
360	42.3  
365	42.4  
371	42.4  
376	42.3  
382	42.5  
387	42.5  
393	42.5  
398	42.6  
404	42.5  
410	42.7  
416	42.6  
422	42.7  
428	42.7  
434	42.7  
441	42.7  
447	42.7  
454	42.9  
460	42.8  
467	43    
474	42.9  
481	42.9  
488	43    
495	43    
502	43    
509	43.1  
517	43.2  
524	43.1  
532	43.2  
540	43.2  
547	43.2  
555	43.4  
563	43.4  
572	43.3  
580	43.3  
588	43.4  
597	43.5  
606	43.5  
614	43.6  
623	43.7  
632	43.6  
642	43.8  
651	43.7  
660	43.8  
670	43.9  
680	43.9  
690	43.9  
700	44.1  
710	43.9  
720	44    
731	44    
741	44.1  
752	44.2  
763	44.3  
774	44.4  
785	44.4  
797	44.4  
808	44.6  
820	44.4  
832	44.7  
844	44.7  
856	44.7  
869	44.8  
882	44.9  
894	44.8  
907	44.9  
921	44.9  
934	45.1  
948	45.2  
961	45.2  
975	45.2  
990	45.4  
1004	45.4 
1019	45.5 
1033	45.6 
1048	45.7 
1064	45.7 
1079	45.7 
1095	45.9 
1111	46   
1127	45.9 
1143	46.2 
1160	46.2 
1177	46.4 
1194	46.4 
1211	46.4 
1229	46.5 
1247	46.6 
1265	46.8 
1283	46.7 
1302	46.9 
1321	47   
1340	47.1 
1360	47.2 
1379	47.4 
1399	47.3 
1420	47.4 
1440	47.6 
1461	47.8 
1483	47.8 
1504	47.9 
1526	48   
1548	48.1 
1571	48.4 
1594	48.5 
1617	48.6 
1640	48.8 
1664	48.9 
1688	48.9 
1713	49.1 
1738	49.3 
1763	49.5 
1789	49.5 
1815	49.6 
1841	49.7 
1868	50   
1895	50.1 
1923	50.1 
1951	50.5 
1979	50.5 
2008	50.6 
2037	51   
2067	51   
2097	51.3 
2127	51.3 
2158	51.5 
2190	51.8 
2221	51.8 
2254	52   
2287	52.1 
2320	52.4 
2354	52.5 
2388	52.7 
2423	52.8 
2458	53   
2494	53.1 
2530	53.3 
2567	53.3 
2604	53.5 
2642	53.6 
2680	53.8 
2719	53.8 
2759	54   
2799	54.1 
2840	54.2 
2881	54.1 
2923	54.3 
2965	54.2 
3008	54.3 
3052	54.1 
3097	53.9 
3142	53.6 
3187	53.3 
3234	53.1 
3281	52.5 
3328	52.1 
3377	51.5 
3426	50.9 
3476	50.4 
3526	50   
3578	49.8 
3630	49.6 
3682	49.7 
3736	50   
3790	50.3 
3846	50.6 
3901	51   
3958	51.1 
4016	51.2 
4074	51.4 
4133	51.4 
4194	51.2 
4255	51.1 
4316	50.9 
4379	50.5 
4443	50.4 
4508	50.2 
4573	50   
4640	49.7 
4707	49.5 
4776	49.3 
4845	49.1 
4916	48.9 
4987	48.7 
5060	48.7 
5133	48.6 
5208	48.5 
5284	48.4 
5360	48.4 
5438	48.2 
5518	48   
5598	47.7 
5679	47.7 
5762	48   
5846	48.1 
5931	48.4 
6017	48.7 
6104	48.6 
6193	48.2 
6283	47.8 
6375	47.2 
6467	46.8 
6561	46.3 
6657	45.7 
6754	45.4 
6852	45.2 
6952	44.9 
7053	44.4 
7155	44   
7259	43.7 
7365	43.5 
7472	43.8 
7581	43.9 
7691	43.9 
7803	43.7 
7916	43.6 
8032	43.5 
8148	43.3 
8267	43.1 
8387	43.1 
8509	42.6 
8633	42.5 
8758	42.5 
8886	42.7 
9015	42.5 
9146	42.3 
9279	42.3 
9414	42.4 
9551	42.3 
9690	42   
9831	42.1 
9974	42.3 
10119	42.2
10266	42.1
10416	41.6
10567	41.5
10721	41.1
10877	40.8
11035	41.1
11196	40.9
11358	40.9
11524	40.7
11691	40.5
11861	40.3
12034	40.5
12209	40.5
12386	40.3
12567	40.2
12749	40.1
12935	40.4
13123	40.4
13314	40.1
13507	39.7
13704	39.5
13903	39.7
14105	39.5
14311	39.3
14519	39.3
14730	39.2
14944	39.2
15162	38.9
15382	39.1
15606	39.2
15833	39.1
16063	38.8
16297	38.7
16534	38.5
16774	38.4
17018	38.4
17266	38.3
17517	38.3
17772	38.3
18030	38.1
18293	38.1
18559	38  
18829	37.9
19102	37.8
19380	37.7
20000	37.7
overall dB	0.0 dB
decay	Average
averaging	No Smoothing
source	Totally Made Up


saved	--/-/--, --:-- AM
peak	0.0Hz
